# comment: None given                          Feff8L (EXAFS)       0.1      
# Source:
# Structure Summary:  P8 Pt4
# Reduced formula:  P2Pt
# space group: (Pa-3), space number:  (205)
# abc:  5.722614   5.722614   5.722614
# angles: 90.000000  90.000000  90.000000
# sites: 12
# mp-730
# POT  Non-SCF, core-hole, AFOLP (folp(0)= 1.150)
# Abs   Z=78 Rmt= 1.374 Rnm= 1.446 L3 shell
# Pot 1 Z=15 Rmt= 1.324 Rnm= 1.436
# Pot 2 Z=78 Rmt= 1.387 Rnm= 1.462
# Gam_ch=5.171E+00 H-L exch
# Mu= 1.703E+00 kf=2.133E+00 Vint=-1.564E+01 Rs_int= 1.700
# PATH  Rmax= 6.000,  Keep_limit= 0.00, Heap_limit 0.00  Pwcrit= 2.50%
#  S02=1.000                                        Global_sig2= 0.00000
#  Curved wave amplitude ratio filter   4.000%
#     file         sig2 tot  cw amp ratio   deg  nlegs   reff  inp sig2
#           1       0.00000    100.00      6.00     2   2.4034
#           2       0.00000     28.96      6.00     2   3.6007
#           3       0.00000      7.67      2.00     2   3.8680
#           4       0.00000     53.58     12.00     2   4.0465
#           5       0.00000     10.13     12.00     3   4.0900
#           6       0.00000     23.95     24.00     3   4.4266
#           7       0.00000     11.87      6.00     2   4.7064
#           8       0.00000      6.46      6.00     3   4.8067
#           9       0.00000     18.60      6.00     4   4.8067
#          14       0.00000      7.18      6.00     2   5.4166
#          16       0.00000     12.73     12.00     2   5.5978
#          17       0.00000     14.07     12.00     3   5.6410
#          18       0.00000      4.02     12.00     3   5.6665
#          19       0.00000      7.87      6.00     4   5.6841
#          20       0.00000     10.29      6.00     2   5.7226
#          21       0.00000      4.92     12.00     3   5.7571
#          23       0.00000      8.07     12.00     3   5.8633
#          24       0.00000      8.65     12.00     3   5.8633
#    18/  21 paths used
#  -----------------------------------------------------------------------
#       k          chi          mag           phase @#
     0.0500    2.787324E-01  4.115326E-01  2.397502E+00
     0.1000    2.766627E-01  4.107194E-01  2.402517E+00
     0.1500    2.704826E-01  4.082794E-01  2.417449E+00
     0.2000    2.642991E-01  4.058304E-01  2.432355E+00
     0.2500    2.540393E-01  4.017314E-01  2.456995E+00
     0.3000    2.437925E-01  3.976106E-01  2.481558E+00
     0.3500    2.295888E-01  3.918103E-01  2.515517E+00
     0.4000    2.154716E-01  3.859773E-01  2.549318E+00
     0.4500    1.976631E-01  3.784347E-01  2.592026E+00
     0.5000    1.801168E-01  3.708594E-01  2.634458E+00
     0.5500    1.593626E-01  3.615532E-01  2.685134E+00
     0.6000    1.391851E-01  3.522363E-01  2.735365E+00
     0.6500    1.165547E-01  3.411909E-01  2.792962E+00
     0.7000    9.496027E-02  3.301914E-01  2.849881E+00
     0.7500    7.176400E-02  3.173883E-01  2.913512E+00
     0.8000    5.018147E-02  3.047427E-01  2.976171E+00
     0.8500    2.868429E-02  2.906205E-01  3.042732E+00
     0.9000    9.327687E-03  2.768312E-01  3.107892E+00
     0.9500   -8.696042E-03  2.616048E-01  3.174840E+00
     1.0000   -2.427054E-02  2.469993E-01  3.240013E+00
     1.0500   -3.706664E-02  2.314236E-01  3.302453E+00
     1.1000   -4.775620E-02  2.165515E-01  3.363951E+00
     1.1500   -5.472443E-02  2.013895E-01  3.416787E+00
     1.2000   -5.997295E-02  1.874854E-01  3.467196E+00
     1.2500   -6.291806E-02  1.745057E-01  3.510450E+00
     1.3000   -6.271592E-02  1.627459E-01  3.537192E+00
     1.3500   -6.165341E-02  1.529077E-01  3.556611E+00
     1.4000   -6.078024E-02  1.458828E-01  3.571336E+00
     1.4500   -6.035328E-02  1.417436E-01  3.581430E+00
     1.5000   -6.098544E-02  1.393880E-01  3.594435E+00
     1.5500   -6.456213E-02  1.404109E-01  3.619372E+00
     1.6000   -6.985388E-02  1.423361E-01  3.654563E+00
     1.6500   -7.915540E-02  1.463876E-01  3.712891E+00
     1.7000   -8.990804E-02  1.503015E-01  3.782826E+00
     1.7500   -1.037661E-01  1.547045E-01  3.876796E+00
     1.8000   -1.175230E-01  1.581871E-01  3.979040E+00
     1.8500   -1.317451E-01  1.608958E-01  4.100950E+00
     1.9000   -1.435705E-01  1.623195E-01  4.226999E+00
     1.9500   -1.527767E-01  1.623282E-01  4.367636E+00
     2.0000   -1.577441E-01  1.610662E-01  4.508932E+00
     2.0500   -1.577072E-01  1.578960E-01  4.663476E+00
     2.1000   -1.529791E-01  1.537914E-01  4.815216E+00
     2.1500   -1.442935E-01  1.489845E-01  4.963997E+00
     2.2000   -1.324378E-01  1.436454E-01  5.110029E+00
     2.2500   -1.164328E-01  1.368284E-01  5.265413E+00
     2.3000   -9.929338E-02  1.301833E-01  5.415677E+00
     2.3500   -8.167285E-02  1.237203E-01  5.562179E+00
     2.4000   -6.402680E-02  1.173251E-01  5.705936E+00
     2.4500   -4.801456E-02  1.104615E-01  5.833511E+00
     2.5000   -3.294574E-02  1.043228E-01  5.961880E+00
     2.5500   -1.879359E-02  9.832666E-02  6.090868E+00
     2.6000   -6.126582E-03  9.208094E-02  6.216601E+00
     2.6500    5.032623E-03  8.812842E-02  6.340322E+00
     2.7000    1.472166E-02  8.421718E-02  6.458894E+00
     2.7500    2.270730E-02  8.048150E-02  6.569213E+00
     2.8000    2.903178E-02  7.718815E-02  6.668787E+00
     2.8500    3.559552E-02  7.510854E-02  6.776924E+00
     2.9000    4.141577E-02  7.372376E-02  6.879709E+00
     2.9500    4.694700E-02  7.319480E-02  6.979504E+00
     3.0000    5.265113E-02  7.362150E-02  7.080038E+00
     3.0500    5.944701E-02  7.513230E-02  7.196005E+00
     3.1000    6.662184E-02  7.735718E-02  7.320858E+00
     3.1500    7.388750E-02  8.013165E-02  7.456597E+00
     3.2000    8.065977E-02  8.324553E-02  7.604085E+00
     3.2500    8.590761E-02  8.625057E-02  7.764775E+00
     3.3000    8.883578E-02  8.913170E-02  7.935491E+00
     3.3500    8.859303E-02  9.169985E-02  8.115031E+00
     3.4000    8.453409E-02  9.378951E-02  8.301977E+00
     3.4500    7.664563E-02  9.558937E-02  8.494440E+00
     3.5000    6.473196E-02  9.672278E-02  8.691576E+00
     3.5500    4.933494E-02  9.711347E-02  8.891901E+00
     3.6000    3.141850E-02  9.672074E-02  9.093938E+00
     3.6500    1.225621E-02  9.586412E-02  9.296577E+00
     3.7000   -6.917038E-03  9.424578E-02  9.498238E+00
     3.7500   -2.474820E-02  9.192102E-02  9.697375E+00
     3.8000   -4.010686E-02  8.897905E-02  9.892378E+00
     3.8500   -5.253409E-02  8.574327E-02  1.008424E+01
     3.9000   -6.138128E-02  8.213763E-02  1.026876E+01
     3.9500   -6.673402E-02  7.834087E-02  1.044427E+01
     4.0000   -6.906062E-02  7.455489E-02  1.060926E+01
     4.0500   -6.917199E-02  7.106037E-02  1.076452E+01
     4.1000   -6.774052E-02  6.800091E-02  1.090803E+01
     4.1500   -6.551338E-02  6.558062E-02  1.104086E+01
     4.2000   -6.303814E-02  6.396022E-02  1.116558E+01
     4.2500   -6.056070E-02  6.324455E-02  1.128794E+01
     4.3000   -5.803853E-02  6.342873E-02  1.141081E+01
     4.3500   -5.516968E-02  6.443590E-02  1.153851E+01
     4.4000   -5.147659E-02  6.612898E-02  1.167421E+01
     4.4500   -4.634473E-02  6.834504E-02  1.182120E+01
     4.5000   -3.932262E-02  7.091000E-02  1.197856E+01
     4.5500   -3.007406E-02  7.366496E-02  1.214583E+01
     4.6000   -1.849779E-02  7.647711E-02  1.232207E+01
     4.6500   -4.587806E-03  7.922008E-02  1.250843E+01
     4.7000    1.104519E-02  8.182136E-02  1.270178E+01
     4.7500    2.767087E-02  8.421442E-02  1.290117E+01
     4.8000    4.435271E-02  8.634594E-02  1.310582E+01
     4.8500    6.015497E-02  8.821520E-02  1.331674E+01
     4.9000    7.380188E-02  8.973680E-02  1.353203E+01
     4.9500    8.418480E-02  9.086671E-02  1.375128E+01
     5.0000    9.034608E-02  9.156050E-02  1.397411E+01
     5.0500    9.169041E-02  9.187998E-02  1.420142E+01
     5.1000    8.773840E-02  9.169374E-02  1.443196E+01
     5.1500    7.855531E-02  9.094787E-02  1.466532E+01
     5.2000    6.471402E-02  8.960049E-02  1.490091E+01
     5.2500    4.713073E-02  8.784372E-02  1.514164E+01
     5.3000    2.723384E-02  8.547415E-02  1.538369E+01
     5.3500    6.737296E-03  8.248065E-02  1.562619E+01
     5.4000   -1.256795E-02  7.888820E-02  1.586796E+01
     5.4500   -2.950570E-02  7.481762E-02  1.611334E+01
     5.5000   -4.244160E-02  7.027580E-02  1.635638E+01
     5.5500   -5.067920E-02  6.534147E-02  1.659564E+01
     5.6000   -5.414514E-02  6.011469E-02  1.682934E+01
     5.6500   -5.325117E-02  5.455043E-02  1.706007E+01
     5.7000   -4.888109E-02  4.888117E-02  1.728060E+01
     5.7500   -4.231601E-02  4.325257E-02  1.748724E+01
     5.8000   -3.489514E-02  3.782843E-02  1.767516E+01
     5.8500   -2.764677E-02  3.262873E-02  1.783865E+01
     5.9000   -2.165075E-02  2.802692E-02  1.796679E+01
     5.9500   -1.738668E-02  2.429710E-02  1.805209E+01
     6.0000   -1.487878E-02  2.171431E-02  1.809467E+01
     6.0500   -1.394668E-02  2.049124E-02  1.810095E+01
     6.1000   -1.393147E-02  2.068250E-02  1.811050E+01
     6.1500   -1.407615E-02  2.196104E-02  1.815381E+01
     6.2000   -1.366262E-02  2.388680E-02  1.824065E+01
     6.2500   -1.214018E-02  2.609171E-02  1.836560E+01
     6.3000   -9.199373E-03  2.833371E-02  1.851888E+01
     6.3500   -4.787931E-03  3.047610E-02  1.869180E+01
     6.4000    9.206285E-04  3.245382E-02  1.887793E+01
     6.4500    7.586310E-03  3.424650E-02  1.907293E+01
     6.5000    1.476858E-02  3.585937E-02  1.927404E+01
     6.5500    2.242041E-02  3.765710E-02  1.948730E+01
     6.6000    2.964851E-02  3.925970E-02  1.970550E+01
     6.6500    3.583239E-02  4.066691E-02  1.992778E+01
     6.7000    4.039392E-02  4.187477E-02  2.015362E+01
     6.7500    4.284364E-02  4.287410E-02  2.038266E+01
     6.8000    4.282961E-02  4.365062E-02  2.061461E+01
     6.8500    4.018582E-02  4.418640E-02  2.084916E+01
     6.9000    3.497221E-02  4.446211E-02  2.108593E+01
     6.9500    2.749508E-02  4.445989E-02  2.132441E+01
     7.0000    1.829693E-02  4.416617E-02  2.156400E+01
     7.0500    7.904179E-03  4.348872E-02  2.180838E+01
     7.1000   -2.545239E-03  4.248695E-02  2.205109E+01
     7.1500   -1.216397E-02  4.118690E-02  2.229096E+01
     7.2000   -2.022082E-02  3.962761E-02  2.252665E+01
     7.2500   -2.623562E-02  3.786148E-02  2.275670E+01
     7.3000   -3.002701E-02  3.595408E-02  2.297955E+01
     7.3500   -3.170379E-02  3.398294E-02  2.319362E+01
     7.4000   -3.160295E-02  3.203499E-02  2.339753E+01
     7.4500   -3.018951E-02  3.020171E-02  2.359037E+01
     7.5000   -2.794229E-02  2.857142E-02  2.377219E+01
     7.5500   -2.527484E-02  2.722827E-02  2.394304E+01
     7.6000   -2.244632E-02  2.624512E-02  2.410669E+01
     7.6500   -1.950689E-02  2.563205E-02  2.426783E+01
     7.7000   -1.635648E-02  2.535315E-02  2.443153E+01
     7.7500   -1.282288E-02  2.533384E-02  2.460202E+01
     7.8000   -8.755843E-03  2.547678E-02  2.478191E+01
     7.8500   -4.110493E-03  2.567992E-02  2.497198E+01
     7.9000    1.003101E-03  2.585100E-02  2.517155E+01
     7.9500    6.316944E-03  2.591652E-02  2.537896E+01
     8.0000    1.144861E-02  2.582584E-02  2.559202E+01
     8.0500    1.612003E-02  2.571563E-02  2.581025E+01
     8.1000    1.986683E-02  2.541728E-02  2.603001E+01
     8.1500    2.240943E-02  2.494384E-02  2.624884E+01
     8.2000    2.363594E-02  2.432760E-02  2.646451E+01
     8.2500    2.360714E-02  2.361669E-02  2.667510E+01
     8.3000    2.251840E-02  2.287054E-02  2.687925E+01
     8.3500    2.063215E-02  2.215399E-02  2.707635E+01
     8.4000    1.820226E-02  2.152950E-02  2.726691E+01
     8.4500    1.541282E-02  2.104797E-02  2.745268E+01
     8.5000    1.234901E-02  2.073981E-02  2.763654E+01
     8.5500    8.951653E-03  2.070244E-02  2.782719E+01
     8.6000    5.166838E-03  2.079581E-02  2.802325E+01
     8.6500    9.913760E-04  2.097370E-02  2.822705E+01
     8.7000   -3.488870E-03  2.117793E-02  2.843983E+01
     8.7500   -8.065638E-03  2.134738E-02  2.866178E+01
     8.8000   -1.241304E-02  2.142527E-02  2.889228E+01
     8.8500   -1.613227E-02  2.136426E-02  2.913015E+01
     8.9000   -1.882613E-02  2.112912E-02  2.937389E+01
     8.9500   -2.018392E-02  2.069783E-02  2.962182E+01
     9.0000   -2.005418E-02  2.006154E-02  2.987220E+01
     9.0500   -1.848456E-02  1.923986E-02  3.012626E+01
     9.1000   -1.569089E-02  1.821801E-02  3.037813E+01
     9.1500   -1.209894E-02  1.702377E-02  3.062542E+01
     9.2000   -8.210679E-03  1.569427E-02  3.086537E+01
     9.2500   -4.506737E-03  1.427443E-02  3.109471E+01
     9.3000   -1.361291E-03  1.281561E-02  3.130950E+01
     9.3500    1.011396E-03  1.137447E-02  3.150496E+01
     9.4000    2.569318E-03  1.001208E-02  3.167545E+01
     9.4500    3.416533E-03  8.793034E-03  3.181498E+01
     9.5000    3.751119E-03  7.783237E-03  3.191880E+01
     9.5500    3.790902E-03  7.020639E-03  3.198632E+01
     9.6000    3.752431E-03  6.584217E-03  3.202233E+01
     9.6500    3.823797E-03  6.499099E-03  3.204495E+01
     9.7000    4.139419E-03  6.748414E-03  3.207627E+01
     9.7500    4.784842E-03  7.288112E-03  3.213213E+01
     9.8000    5.806810E-03  8.072578E-03  3.221876E+01
     9.8500    7.216117E-03  9.068835E-03  3.233610E+01
     9.9000    8.975664E-03  1.025560E-02  3.248177E+01
     9.9500    1.097493E-02  1.161570E-02  3.265302E+01
    10.0000    1.300147E-02  1.312898E-02  3.284724E+01
    10.0500    1.476642E-02  1.480681E-02  3.306059E+01
    10.1000    1.582433E-02  1.659613E-02  3.329289E+01
    10.1500    1.568258E-02  1.845268E-02  3.354176E+01
    10.2000    1.389308E-02  2.032689E-02  3.380500E+01
    10.2500    1.017459E-02  2.216585E-02  3.408063E+01
    10.3000    4.530316E-03  2.391536E-02  3.436694E+01
    10.3500   -2.673395E-03  2.552194E-02  3.466246E+01
    10.4000   -1.069799E-02  2.693471E-02  3.496596E+01
    10.4500   -1.851010E-02  2.810718E-02  3.527642E+01
    10.5000   -2.494162E-02  2.899885E-02  3.559297E+01
    10.5500   -2.890570E-02  2.957656E-02  3.591492E+01
    10.6000   -2.962410E-02  2.981566E-02  3.624173E+01
    10.6500   -2.681265E-02  2.970079E-02  3.657297E+01
    10.7000   -2.077694E-02  2.922655E-02  3.690835E+01
    10.7500   -1.238855E-02  2.839767E-02  3.724768E+01
    10.8000   -2.939221E-03  2.722902E-02  3.759096E+01
    10.8500    6.099890E-03  2.574525E-02  3.793832E+01
    10.9000    1.336242E-02  2.398027E-02  3.829015E+01
    10.9500    1.785111E-02  2.197644E-02  3.864717E+01
    11.0000    1.912225E-02  1.978376E-02  3.901058E+01
    11.0500    1.749473E-02  1.760272E-02  3.938074E+01
    11.1000    1.351952E-02  1.533432E-02  3.976136E+01
    11.1500    8.236760E-03  1.304404E-02  4.015727E+01
    11.2000    2.819823E-03  1.080772E-02  4.057674E+01
    11.2500   -1.674854E-03  8.719158E-03  4.103399E+01
    11.3000   -4.510510E-03  6.906662E-03  4.155233E+01
    11.3500   -5.382181E-03  5.556778E-03  4.216016E+01
    11.4000   -4.420405E-03  4.891753E-03  4.285409E+01
    11.4500   -2.097551E-03  4.983828E-03  4.354789E+01
    11.5000    9.282790E-04  5.610186E-03  4.414852E+01
    11.5500    3.984041E-03  6.469883E-03  4.464568E+01
    11.6000    6.521114E-03  7.375331E-03  4.506703E+01
    11.6500    8.191700E-03  8.247133E-03  4.543708E+01
    11.7000    8.853438E-03  9.069149E-03  4.577163E+01
    11.7500    8.516822E-03  9.859177E-03  4.608103E+01
    11.8000    7.266839E-03  1.065114E-02  4.637304E+01
    11.8500    5.195441E-03  1.148204E-02  4.665434E+01
    11.9000    2.373565E-03  1.238141E-02  4.693099E+01
    11.9500   -1.126490E-03  1.336386E-02  4.720828E+01
    12.0000   -5.169423E-03  1.442565E-02  4.749039E+01
    12.0500   -9.479870E-03  1.557538E-02  4.777824E+01
    12.1000   -1.364785E-02  1.675724E-02  4.807566E+01
    12.1500   -1.706229E-02  1.792543E-02  4.838310E+01
    12.2000   -1.902994E-02  1.903025E-02  4.870037E+01
    12.2500   -1.892692E-02  2.002210E-02  4.902696E+01
    12.3000   -1.637736E-02  2.085461E-02  4.936228E+01
    12.3500   -1.140835E-02  2.148704E-02  4.970577E+01
    12.4000   -4.529661E-03  2.188599E-02  5.005701E+01
    12.4500    3.297963E-03  2.202679E-02  5.041577E+01
    12.5000    1.081426E-02  2.189452E-02  5.078208E+01
    12.5500    1.670556E-02  2.148478E-02  5.115625E+01
    12.6000    1.989151E-02  2.080436E-02  5.153895E+01
    12.6500    1.978217E-02  1.987185E-02  5.193132E+01
    12.7000    1.643752E-02  1.871834E-02  5.233509E+01
    12.7500    1.058249E-02  1.738846E-02  5.275279E+01
    12.8000    3.465888E-03  1.594198E-02  5.318792E+01
    12.8500   -3.408683E-03  1.445612E-02  5.364511E+01
    12.9000   -8.617548E-03  1.302814E-02  5.412983E+01
    12.9500   -1.113671E-02  1.177562E-02  5.464695E+01
    13.0000   -1.056808E-02  1.082732E-02  5.519714E+01
    13.0500   -7.195125E-03  1.022304E-02  5.576791E+01
    13.1000   -2.011673E-03  1.006494E-02  5.634744E+01
    13.1500    3.683985E-03  1.032225E-02  5.691361E+01
    13.2000    8.539154E-03  1.088673E-02  5.745034E+01
    13.2500    1.145809E-02  1.162021E-02  5.795223E+01
    13.3000    1.183557E-02  1.239618E-02  5.842136E+01
    13.3500    9.659511E-03  1.311703E-02  5.886251E+01
    13.4000    5.465518E-03  1.371523E-02  5.928038E+01
    13.4500    1.655775E-04  1.414923E-02  5.967856E+01
    13.5000   -5.195732E-03  1.439922E-02  6.005942E+01
    13.5500   -9.688786E-03  1.446393E-02  6.042428E+01
    13.6000   -1.268605E-02  1.435859E-02  6.077358E+01
    13.6500   -1.394656E-02  1.411335E-02  6.110717E+01
    13.7000   -1.358811E-02  1.377189E-02  6.142461E+01
    13.7500   -1.197025E-02  1.338918E-02  6.172561E+01
    13.8000   -9.535533E-03  1.302765E-02  6.201068E+01
    13.8500   -6.664249E-03  1.275044E-02  6.228188E+01
    13.9000   -3.588576E-03  1.261181E-02  6.254333E+01
    13.9500   -3.887100E-04  1.264623E-02  6.280111E+01
    14.0000    2.936253E-03  1.286049E-02  6.306220E+01
    14.0500    6.346818E-03  1.320724E-02  6.333314E+01
    14.1000    9.664828E-03  1.366599E-02  6.361741E+01
    14.1500    1.254402E-02  1.418195E-02  6.391729E+01
    14.2000    1.448883E-02  1.469896E-02  6.423336E+01
    14.2500    1.496659E-02  1.516648E-02  6.456518E+01
    14.3000    1.357137E-02  1.554369E-02  6.491190E+01
    14.3500    1.018939E-02  1.580133E-02  6.527263E+01
    14.4000    5.110451E-03  1.592240E-02  6.564670E+01
    14.4500   -9.584784E-04  1.590223E-02  6.603376E+01
    14.5000   -6.995226E-03  1.574816E-02  6.643372E+01
    14.5500   -1.186425E-02  1.547905E-02  6.684678E+01
    14.6000   -1.457229E-02  1.512437E-02  6.727322E+01
    14.6500   -1.451296E-02  1.472271E-02  6.771324E+01
    14.7000   -1.163448E-02  1.431926E-02  6.816660E+01
    14.7500   -6.482347E-03  1.396171E-02  6.863220E+01
    14.8000   -1.001641E-04  1.369448E-02  6.910772E+01
    14.8500    6.191099E-03  1.355175E-02  6.958949E+01
    14.9000    1.108300E-02  1.355102E-02  7.007274E+01
    14.9500    1.356798E-02  1.368963E-02  7.055242E+01
    15.0000    1.315589E-02  1.394585E-02  7.102403E+01
    15.0500    9.920315E-03  1.423164E-02  7.148534E+01
    15.1000    4.623718E-03  1.456139E-02  7.193350E+01
    15.1500   -1.648696E-03  1.489289E-02  7.236756E+01
    15.2000   -7.687870E-03  1.518889E-02  7.278735E+01
    15.2500   -1.242081E-02  1.542049E-02  7.319311E+01
    15.3000   -1.511454E-02  1.556898E-02  7.358522E+01
    15.3500   -1.548094E-02  1.562656E-02  7.396405E+01
    15.4000   -1.366881E-02  1.559633E-02  7.432986E+01
    15.4500   -1.016058E-02  1.549171E-02  7.468289E+01
    15.5000   -5.614193E-03  1.533526E-02  7.502341E+01
    15.5500   -7.007087E-04  1.515675E-02  7.535198E+01
    15.6000    4.018044E-03  1.499033E-02  7.566958E+01
    15.6500    8.145685E-03  1.487060E-02  7.597792E+01
    15.7000    1.144014E-02  1.482789E-02  7.627946E+01
    15.7500    1.375665E-02  1.488349E-02  7.657739E+01
    15.8000    1.497992E-02  1.504600E-02  7.687526E+01
    15.8500    1.498135E-02  1.530988E-02  7.717656E+01
    15.9000    1.362455E-02  1.565680E-02  7.748421E+01
    15.9500    1.082204E-02  1.605907E-02  7.780036E+01
